date,open,high,low,close,volume
2021-05-12,16.5,17.7,15.75,15.95,119349.0
2021-05-14,16.65,16.65,15.9,16.15,50514.0
2021-05-17,16.55,16.55,16.05,16.2,38260.0
2021-05-18,16.9,16.9,16.1,16.4,57873.0
2021-05-19,16.2,16.45,15.75,16.0,77659.0
2021-05-20,16.0,17.3,15.95,16.25,226472.0
2021-05-21,16.5,16.8,16.25,16.55,55262.0
2021-05-24,16.55,17.25,16.3,16.55,176966.0
2021-05-25,16.75,16.9,16.6,16.8,112700.0
2021-05-26,16.95,18.45,16.65,17.65,535100.0
2021-05-27,17.65,18.25,17.2,17.5,389462.0
2021-05-28,17.5,17.75,16.9,17.1,128007.0
2021-05-31,18.5,19.5,18.25,18.45,1462825.0
2021-06-01,18.5,18.7,17.55,17.85,202409.0
2021-06-02,17.6,19.7,17.6,18.85,415961.0
2021-06-03,19.0,19.45,18.4,18.75,193562.0
2021-06-04,18.5,19.0,18.2,18.35,193224.0
2021-06-07,18.35,18.8,18.2,18.25,128064.0
2021-06-08,18.3,18.6,18.0,18.3,134733.0
2021-06-09,18.35,19.6,18.05,18.3,852385.0
2021-06-10,18.5,19.5,18.25,18.8,285941.0
2021-06-11,19.0,20.45,18.8,19.95,1002964.0
2021-06-14,20.25,20.25,19.1,19.25,300963.0
2021-06-15,19.1,20.95,19.05,20.2,564861.0
2021-06-16,20.0,20.2,19.55,19.65,214188.0
2021-06-17,19.25,20.1,19.1,19.3,268341.0
2021-06-18,19.15,19.7,18.3,19.0,458599.0
2021-06-21,18.9,19.2,17.4,18.85,291268.0
2021-06-22,18.85,19.75,18.7,18.95,814927.0
2021-06-23,19.1,19.7,18.8,18.9,407643.0
2021-06-24,19.25,19.4,18.6,18.7,105779.0
2021-06-25,18.95,22.4,18.6,20.5,3176074.0
2021-06-28,20.7,21.2,19.75,20.0,484555.0
2021-06-29,20.05,20.25,19.6,19.7,137186.0
2021-06-30,20.15,20.7,19.75,20.55,344981.0
2021-07-01,20.75,21.15,20.1,20.2,352491.0
2021-07-02,20.45,20.7,19.8,19.9,190908.0
2021-07-05,20.1,21.65,19.6,20.75,590925.0
2021-07-06,21.15,21.8,20.4,20.6,218322.0
2021-07-07,21.1,24.7,21.1,24.7,5168423.0
2021-07-08,24.95,24.95,22.6,22.85,1403474.0
2021-07-09,22.95,23.85,22.5,23.05,596552.0
2021-07-12,23.0,23.4,22.3,22.6,272434.0
2021-07-13,22.95,23.1,21.6,21.75,403508.0
2021-07-14,21.4,22.35,21.4,21.85,198746.0
2021-07-15,21.85,22.65,20.5,20.7,427551.0
2021-07-16,21.0,21.7,20.4,20.65,263631.0
2021-07-19,20.5,21.2,19.65,20.25,330767.0
2021-07-20,20.05,20.95,18.7,20.65,415700.0
2021-07-22,21.5,21.5,20.5,21.05,222344.0
2021-07-23,21.25,21.85,20.5,20.65,209935.0
2021-07-26,20.85,20.85,19.9,20.1,138382.0
2021-07-27,19.95,23.75,19.95,22.15,1307269.0
2021-07-28,22.6,23.5,21.95,23.0,646510.0
2021-07-29,23.25,24.1,22.6,22.75,534487.0
2021-07-30,22.8,25.7,22.45,24.7,1587074.0
2021-08-02,27.7,27.7,25.15,25.5,1262204.0
2021-08-03,26.3,26.3,24.25,24.4,423356.0
2021-08-04,25.2,25.2,22.85,23.1,381797.0
2021-08-05,23.0,24.15,21.5,22.7,616425.0
2021-08-06,22.75,23.7,22.25,22.7,177806.0
2021-08-09,22.75,23.3,22.25,22.75,181037.0
2021-08-10,22.85,22.85,20.55,20.85,294104.0
2021-08-11,20.85,20.95,18.9,20.4,216845.0
2021-08-12,20.5,21.6,20.5,20.85,158650.0
2021-08-13,20.85,22.4,20.6,21.35,202228.0
2021-08-16,21.15,21.5,20.0,20.3,164804.0
2021-08-17,20.5,20.75,19.65,19.75,133763.0
2021-08-18,19.85,20.5,19.5,19.65,87096.0
2021-08-20,19.0,19.65,17.0,18.7,299624.0
2021-08-23,19.2,19.5,18.2,18.4,82664.0
2021-08-24,18.45,20.6,18.2,19.95,198229.0
2021-08-25,20.0,20.45,19.55,19.75,88871.0
2021-08-26,19.75,20.3,19.5,19.55,76759.0
2021-08-27,19.55,19.75,18.5,18.9,67972.0
2021-08-30,18.95,20.45,18.95,19.85,151819.0
2021-08-31,20.9,20.9,19.6,19.8,57586.0
2021-09-01,20.0,20.7,19.65,20.05,143487.0
2021-09-02,20.1,20.4,19.7,19.8,136599.0
2021-09-03,20.25,20.25,19.55,19.6,64911.0
2021-09-06,19.7,19.95,19.15,19.55,106101.0
2021-09-07,19.5,19.75,19.15,19.45,38300.0
2021-09-08,19.75,19.75,18.9,19.05,262661.0
2021-09-09,19.1,19.4,19.0,19.15,78472.0
2021-09-13,19.15,19.5,18.95,19.2,61637.0
2021-09-14,19.25,19.5,18.0,18.95,170845.0
2021-09-15,18.7,19.35,18.7,19.05,102356.0
2021-09-16,19.0,19.3,19.0,19.05,49833.0
2021-09-17,19.05,19.2,18.2,18.7,107715.0
2021-09-20,18.75,18.75,18.05,18.35,39854.0
2021-09-21,18.35,18.65,18.35,18.45,26516.0
2021-09-22,18.7,19.0,18.5,18.6,44778.0
2021-09-23,18.95,19.1,18.4,18.45,97203.0
2021-09-24,18.45,18.7,17.9,18.1,95554.0
2021-09-27,18.2,18.95,17.7,18.6,90833.0
2021-09-28,18.25,20.25,18.25,19.5,513656.0
2021-09-29,19.7,19.95,19.35,19.65,71978.0
2021-09-30,19.9,20.75,19.35,19.5,136561.0
2021-10-01,19.5,20.0,19.1,19.6,77590.0
2021-10-04,19.95,20.0,19.5,19.55,94400.0
2021-10-05,19.55,21.0,19.35,20.5,322861.0
2021-10-06,20.9,21.1,19.5,19.7,177481.0
2021-10-07,20.0,20.8,19.75,19.95,108049.0
2021-10-08,20.05,20.9,20.05,20.25,115810.0
2021-10-11,20.45,22.15,20.05,21.25,548547.0
2021-10-12,21.4,22.1,21.05,21.8,231018.0
2021-10-13,22.0,22.0,21.05,21.25,199576.0
2021-10-14,21.5,21.5,20.6,20.9,92669.0
2021-10-18,20.95,20.95,20.05,20.15,119692.0
2021-10-19,20.4,20.4,19.2,19.55,105026.0
2021-10-20,19.6,19.75,19.1,19.15,45803.0
2021-10-21,19.2,19.9,19.2,19.6,33961.0
2021-10-22,19.75,20.15,19.05,19.25,68983.0
2021-10-25,19.2,19.3,18.55,18.95,62716.0
2021-10-26,19.0,19.95,18.35,19.15,56061.0
2021-10-27,19.25,20.2,19.2,19.6,92349.0
2021-10-28,19.65,19.95,18.75,18.85,41408.0
2021-10-29,18.9,19.35,18.6,18.8,36786.0
2021-11-01,19.5,19.5,18.9,19.0,26357.0
2021-11-02,19.4,19.4,18.75,18.95,33371.0
2021-11-03,19.0,19.25,18.65,18.9,40436.0
2021-11-04,19.25,19.3,19.0,19.05,26384.0
2021-11-08,19.0,19.25,19.0,19.05,30504.0
2021-11-09,19.05,19.25,19.05,19.05,33049.0
2021-11-10,19.05,19.25,18.85,18.95,46245.0
2021-11-11,18.6,19.2,18.6,18.8,30119.0
2021-11-12,18.75,22.35,18.75,21.95,1546348.0
2021-11-15,21.55,21.55,19.8,20.05,424442.0
2021-11-16,20.0,20.15,19.75,19.85,102897.0
2021-11-17,19.8,21.6,19.75,20.15,412878.0
2021-11-18,20.5,20.5,19.75,19.95,44563.0
2021-11-22,19.75,20.75,18.8,19.25,170126.0
2021-11-23,19.0,19.6,18.8,19.15,89556.0
2021-11-24,19.15,19.7,18.9,19.2,85750.0
2021-11-25,19.2,19.5,19.0,19.35,28468.0
2021-11-26,18.05,19.65,18.05,19.05,109020.0
2021-11-29,19.1,19.2,18.05,18.85,67848.0
2021-11-30,18.6,19.45,18.6,18.75,39918.0
2021-12-01,18.8,19.25,18.35,18.6,47485.0
2021-12-02,18.9,18.95,18.6,18.9,46177.0
2021-12-03,19.1,19.1,18.55,18.65,62148.0
2021-12-06,18.65,19.0,18.5,18.8,61790.0
2021-12-07,18.65,19.0,18.6,18.8,57451.0
2021-12-08,18.85,21.2,18.75,20.35,500391.0
2021-12-09,20.55,21.0,20.25,20.35,113815.0
2021-12-10,20.35,20.95,20.0,20.6,83909.0
2021-12-13,21.0,21.0,19.8,20.05,45717.0
2021-12-14,20.2,22.0,19.9,21.4,577868.0
2021-12-15,21.65,21.65,20.1,20.35,125177.0
2021-12-16,20.7,20.7,20.05,20.15,54090.0
2021-12-17,20.05,20.05,18.95,19.25,127902.0
2021-12-20,18.95,18.95,17.05,17.95,282967.0
2021-12-21,18.15,18.75,17.85,18.35,65437.0
2021-12-22,18.35,19.55,18.1,18.95,90240.0
2021-12-23,19.6,19.8,18.8,19.0,61830.0
2021-12-24,19.35,19.35,17.85,18.25,188078.0
2021-12-27,18.4,18.8,18.0,18.5,97244.0
2021-12-28,18.5,19.45,18.5,19.2,91553.0
2021-12-29,19.5,20.45,18.8,19.5,260329.0
2021-12-30,19.5,21.45,19.5,20.45,968223.0
2021-12-31,20.8,20.8,20.1,20.2,104707.0
2022-01-03,20.25,21.35,20.1,20.55,198841.0
2022-01-04,21.0,22.85,20.45,21.45,1009550.0
2022-01-05,21.4,22.25,21.15,21.85,428921.0
2022-01-06,21.65,21.95,21.1,21.6,114015.0
2022-01-07,21.85,22.4,20.75,20.85,263714.0
2022-01-10,21.15,22.75,20.9,22.1,386653.0
2022-01-11,22.3,22.3,21.05,21.25,196218.0
2022-01-12,21.5,22.3,21.4,21.75,249135.0
2022-01-13,22.0,22.0,21.05,21.2,118234.0
2022-01-14,21.4,21.95,21.05,21.35,117058.0
2022-01-17,21.2,21.9,21.2,21.55,80718.0
2022-01-18,21.55,21.9,20.8,21.05,168378.0
2022-01-19,21.35,21.5,19.6,20.6,123604.0
2022-01-20,20.6,21.25,20.35,20.7,75672.0
2022-01-21,20.25,20.85,20.05,20.3,91104.0
2022-01-24,20.0,20.3,19.05,19.25,134889.0
2022-01-25,19.15,19.5,18.9,19.2,85270.0
2022-01-27,19.0,19.85,18.75,19.75,85335.0
2022-01-28,20.25,20.6,19.55,19.65,113039.0
2022-01-31,20.05,20.05,19.55,19.7,226996.0
2022-02-01,19.9,20.4,19.25,19.5,74138.0
2022-02-02,19.55,21.35,19.55,20.75,340469.0
2022-02-03,21.2,21.5,20.4,20.6,128239.0
2022-02-04,20.95,21.1,20.1,20.6,92720.0
2022-02-07,20.85,20.85,20.0,20.1,82328.0
2022-02-08,20.1,20.2,19.35,19.85,53611.0
2022-02-09,19.9,20.5,19.65,19.75,67630.0
2022-02-10,19.95,19.95,19.55,19.7,37701.0
2022-02-11,19.6,19.95,19.5,19.65,33293.0
2022-02-14,19.05,19.85,18.7,18.85,62322.0
2022-02-15,18.7,19.25,18.35,18.95,90801.0
2022-02-16,19.6,20.9,19.05,20.05,208053.0
2022-02-17,19.9,20.5,19.05,19.2,97006.0
2022-02-18,19.0,19.4,18.8,18.85,64159.0
2022-02-21,19.2,19.2,18.15,18.4,50466.0
2022-02-22,18.0,18.45,17.25,18.15,68849.0
2022-02-23,18.35,18.75,18.05,18.3,88601.0
2022-02-24,17.8,17.8,16.55,16.85,122553.0
2022-02-25,17.15,18.3,17.15,17.75,52121.0
2022-02-28,17.75,18.25,16.2,17.9,62678.0
2022-03-02,17.95,18.2,17.5,17.8,32470.0
2022-03-03,17.85,18.25,17.3,17.55,25038.0
2022-03-04,17.55,17.8,17.1,17.15,51780.0
2022-03-07,17.4,17.4,16.6,16.85,21821.0
2022-03-08,17.2,17.2,16.85,17.1,23783.0
2022-03-09,16.9,17.7,16.9,17.55,46328.0
2022-03-10,17.6,18.0,17.2,17.5,59607.0
2022-03-11,17.9,18.9,17.55,18.55,127848.0
2022-03-14,18.55,19.3,18.55,18.7,94862.0
2022-03-15,18.85,19.45,18.35,18.6,147974.0
2022-03-16,18.5,20.3,18.5,19.6,524525.0
2022-03-17,19.85,20.1,19.2,19.5,161459.0
2022-03-21,19.8,19.8,18.15,18.2,470530.0
2022-03-22,18.45,18.45,17.65,17.9,166337.0
2022-03-23,17.85,18.25,17.65,17.8,151894.0
2022-03-24,17.8,18.5,17.6,17.8,154534.0
2022-03-25,17.95,18.2,17.5,17.75,128040.0
2022-03-28,17.95,17.95,17.3,17.4,277913.0
2022-03-29,17.5,18.0,16.9,17.0,378332.0
2022-03-30,17.15,17.6,17.1,17.15,101980.0
2022-03-31,17.15,17.45,16.9,17.05,84698.0
2022-04-01,17.0,17.95,17.0,17.7,139519.0
2022-04-04,18.2,18.4,18.0,18.2,76777.0
2022-04-05,18.6,19.3,18.1,18.85,183683.0
2022-04-06,18.85,19.4,18.35,18.8,169525.0
2022-04-07,18.9,21.3,18.9,20.35,752712.0
2022-04-08,20.7,21.05,20.2,20.5,277423.0
2022-04-11,20.85,20.9,19.45,19.6,150127.0
2022-04-12,19.6,19.75,18.95,19.3,137356.0
2022-04-13,19.3,20.2,19.2,19.65,121347.0
2022-04-18,19.0,20.8,18.85,19.8,364672.0
2022-04-19,20.05,21.9,19.3,20.05,911315.0
2022-04-20,20.25,20.85,19.45,19.95,218901.0
2022-04-21,19.75,21.65,19.7,21.25,344119.0
2022-04-22,21.3,21.5,20.55,20.6,170122.0
2022-04-25,20.7,20.8,19.6,19.65,133273.0
2022-04-26,19.7,20.5,19.5,19.65,93022.0
2022-04-27,19.5,19.7,19.0,19.2,107237.0
2022-04-28,19.95,19.95,18.85,19.05,155790.0
2022-04-29,19.4,19.4,18.8,18.85,61165.0
2022-05-02,18.8,19.1,18.75,18.95,44834.0
2022-05-04,18.55,19.0,18.15,18.4,74561.0
2022-05-05,18.45,18.65,17.8,18.1,72516.0
2022-05-06,18.4,18.5,17.6,17.75,84768.0
2022-05-09,17.45,17.65,16.7,17.1,97433.0
2022-05-10,17.2,17.95,17.1,17.4,55430.0
2022-05-11,17.75,17.75,16.25,17.15,63231.0
2022-05-12,17.15,17.15,16.4,16.7,30230.0
2022-05-13,17.0,17.45,16.15,16.6,61605.0
2022-05-16,16.95,17.85,16.95,17.25,56637.0
2022-05-17,17.25,17.95,17.25,17.8,31305.0
2022-05-18,17.5,18.5,17.45,17.55,113102.0
2022-05-19,17.8,17.95,16.9,17.15,38901.0
2022-05-20,17.5,17.8,17.3,17.7,20213.0
2022-05-23,17.95,17.95,17.1,17.2,33155.0
2022-05-24,17.1,17.35,16.85,17.0,34949.0
2022-05-25,17.2,17.2,16.4,16.7,28388.0
2022-05-26,16.75,17.2,16.15,16.45,44713.0
2022-05-27,16.45,17.2,16.45,16.85,25719.0
2022-05-30,16.85,17.3,16.75,17.0,27915.0
2022-05-31,17.05,17.05,16.55,16.75,28025.0
2022-06-01,16.75,17.1,16.65,16.7,19877.0
2022-06-02,16.7,16.85,16.25,16.55,58202.0
2022-06-03,16.9,16.9,16.0,16.15,62991.0
2022-06-06,16.45,16.45,16.15,16.3,9896.0
2022-06-07,16.3,16.5,16.15,16.2,18724.0
2022-06-08,16.2,16.65,16.1,16.2,34150.0
2022-06-09,15.9,16.4,15.9,16.1,22997.0
2022-06-10,16.0,16.25,15.95,16.05,22417.0
2022-06-13,15.45,16.1,15.45,15.55,19426.0
2022-06-14,15.8,16.45,15.55,15.85,26452.0
2022-06-15,16.0,16.15,15.55,15.6,9808.0
2022-06-16,15.4,15.95,15.4,15.5,14025.0
2022-06-17,15.5,15.6,15.2,15.25,11444.0
2022-06-20,15.25,15.5,14.3,14.75,43611.0
2022-06-21,14.75,15.25,14.6,14.95,50969.0
2022-06-22,14.7,15.8,14.6,14.85,15860.0
2022-06-23,14.7,15.6,14.65,15.2,15569.0
2022-06-24,14.9,15.7,14.8,15.3,22224.0
2022-06-27,15.1,15.7,15.0,15.45,21049.0
2022-06-28,15.45,15.7,15.1,15.45,21178.0
2022-06-29,15.15,15.9,15.0,15.4,41113.0
2022-06-30,15.2,15.7,15.2,15.3,6039.0
2022-07-01,15.25,15.7,15.25,15.4,24974.0
2022-07-04,15.8,15.8,15.45,15.55,35693.0
2022-07-05,15.55,17.1,15.35,16.15,246179.0
2022-07-06,16.5,16.5,16.0,16.05,12821.0
2022-07-07,16.05,16.45,16.0,16.1,9144.0
2022-07-08,15.75,16.45,15.75,16.1,26809.0
2022-07-11,15.9,16.5,15.75,16.1,18327.0
2022-07-12,16.05,16.4,15.55,16.0,46909.0
2022-07-13,16.35,16.65,16.15,16.2,51349.0
2022-07-14,16.05,16.5,15.75,15.8,25688.0
2022-07-15,16.0,16.2,15.8,15.9,14457.0
2022-07-18,16.2,16.3,15.85,16.15,26308.0
2022-07-19,15.9,16.5,15.9,16.2,26334.0
2022-07-20,16.5,16.65,16.05,16.25,58858.0
2022-07-21,16.15,16.25,16.0,16.05,37919.0
2022-07-22,16.0,16.3,16.0,16.05,31842.0
2022-07-25,16.1,16.2,15.75,15.85,19336.0
2022-07-26,15.75,16.1,15.75,15.85,5540.0
2022-07-27,15.85,16.4,15.85,15.95,64458.0
2022-07-28,15.85,16.25,15.8,15.85,41839.0
2022-07-29,15.85,16.2,15.8,15.85,17727.0
2022-08-01,16.4,16.7,16.05,16.5,143405.0
2022-08-02,16.4,17.25,16.4,16.95,92033.0
2022-08-03,16.75,16.9,16.3,16.45,33087.0
2022-08-04,16.5,16.9,16.15,16.65,41072.0
2022-08-05,16.65,16.75,16.3,16.4,25363.0
2022-08-08,16.35,16.8,16.05,16.35,35865.0
2022-08-10,16.35,17.2,16.05,16.6,180874.0
2022-08-11,16.95,16.95,16.05,16.25,22276.0
2022-08-12,16.25,16.5,16.2,16.3,25576.0
2022-08-16,16.45,16.55,16.1,16.35,20125.0
2022-08-17,16.55,16.75,16.4,16.6,57704.0
2022-08-18,16.6,16.7,16.4,16.55,15898.0
2022-08-19,16.75,16.95,16.45,16.65,47031.0
2022-08-22,16.25,16.7,16.15,16.15,43711.0
2022-08-23,16.4,16.9,16.35,16.35,31655.0
2022-08-24,16.7,17.2,16.5,16.75,153586.0
2022-08-25,17.15,17.2,16.75,16.8,54075.0
2022-08-26,16.9,17.3,16.75,17.05,30220.0
2022-08-29,16.9,17.45,16.6,16.95,77707.0
2022-08-30,17.3,17.3,16.85,17.0,16119.0
2022-09-01,17.1,17.3,16.8,17.0,27150.0
2022-09-02,17.0,17.1,16.7,16.8,40552.0
2022-09-05,16.8,17.1,16.6,16.7,36971.0
2022-09-06,16.95,17.45,16.7,16.8,141618.0
2022-09-07,16.95,17.1,16.65,16.7,40602.0
2022-09-08,16.95,18.2,16.7,17.75,353373.0
2022-09-09,17.95,18.35,17.75,17.8,119382.0
2022-09-12,18.0,18.05,17.1,17.4,46527.0
2022-09-13,17.75,17.95,17.4,17.85,64669.0
2022-09-14,17.95,17.95,16.5,17.55,37197.0
2022-09-15,17.8,17.9,16.95,17.2,82101.0
2022-09-16,16.9,17.2,16.6,16.8,38635.0
2022-09-19,17.3,17.3,16.6,16.65,11864.0
2022-09-20,16.85,17.0,16.65,16.75,39475.0
2022-09-21,16.75,16.95,16.25,16.4,30121.0
2022-09-22,16.4,16.6,16.4,16.5,5834.0
2022-09-23,16.95,16.95,15.8,16.0,45133.0
2022-09-26,16.1,16.1,15.2,15.35,32521.0
2022-09-27,15.85,15.85,15.4,15.7,13601.0
2022-09-28,15.5,16.2,15.3,15.7,9559.0
2022-09-29,15.75,15.9,15.4,15.55,8636.0
2022-09-30,15.3,15.8,15.3,15.5,21550.0
2022-10-03,15.5,15.75,15.05,15.3,30562.0
2022-10-04,15.75,15.75,15.15,15.55,21475.0
2022-10-06,15.55,16.3,15.3,16.2,36553.0
2022-10-07,16.5,16.5,15.9,16.15,15188.0
2022-10-10,15.9,16.3,15.85,16.2,17341.0
2022-10-11,16.2,16.2,16.0,16.1,8434.0
2022-10-12,16.45,16.45,15.9,16.0,5583.0
2022-10-13,16.0,16.3,15.75,15.9,15151.0
2022-10-14,15.95,16.25,15.85,16.0,10072.0
2022-10-17,16.2,16.2,15.1,15.5,19366.0
2022-10-18,15.55,15.85,15.25,15.5,24866.0
2022-10-19,15.8,15.8,15.45,15.5,20227.0
2022-10-20,15.45,15.65,15.3,15.45,7802.0
2022-10-21,15.45,15.7,15.25,15.35,15545.0
2022-10-24,15.65,15.65,15.15,15.6,4690.0
2022-10-25,15.65,15.7,15.35,15.45,28765.0
2022-10-27,15.45,15.95,15.25,15.45,48971.0
2022-10-28,15.75,16.05,15.4,15.95,82399.0
2022-10-31,15.7,16.25,15.7,15.8,33929.0
2022-11-01,15.65,16.0,15.6,15.75,26661.0
2022-11-02,16.0,16.0,15.5,15.55,12098.0
2022-11-03,15.55,15.7,15.3,15.35,42240.0
2022-11-04,15.7,16.25,15.35,16.0,45787.0
2022-11-07,16.0,16.25,15.8,16.05,11208.0
2022-11-09,16.25,17.0,15.8,16.25,59057.0
2022-11-10,16.25,16.95,16.25,16.4,68669.0
2022-11-11,16.4,16.75,15.75,15.95,45947.0
2022-11-14,15.95,16.1,15.75,15.75,16114.0
2022-11-15,15.8,15.95,15.5,15.6,28674.0
2022-11-16,15.55,15.75,15.35,15.45,24171.0
2022-11-17,15.5,15.8,15.3,15.6,57621.0
2022-11-18,15.6,15.75,15.4,15.4,33825.0
2022-11-21,15.3,15.55,15.0,15.1,45678.0
2022-11-22,15.1,15.45,15.1,15.25,16330.0
2022-11-23,15.25,15.6,15.1,15.3,32621.0
2022-11-24,15.6,15.6,15.25,15.4,8679.0
2022-11-25,15.45,15.8,15.25,15.6,26842.0
2022-11-28,15.75,15.85,15.35,15.4,13940.0
2022-11-29,15.8,15.8,15.15,15.6,18241.0
2022-11-30,15.6,15.7,15.35,15.45,34230.0
2022-12-01,15.45,15.7,14.85,15.1,118291.0
2022-12-02,15.15,15.3,15.0,15.1,74781.0
2022-12-05,15.1,15.6,15.1,15.35,88485.0
2022-12-06,15.35,15.55,15.05,15.15,50722.0
2022-12-07,15.35,15.35,15.05,15.2,55630.0
2022-12-08,15.2,15.3,15.05,15.25,18314.0
2022-12-09,15.15,15.4,15.05,15.05,57552.0
2022-12-12,15.55,15.55,14.8,15.05,16814.0
2022-12-13,15.05,17.0,15.05,16.1,531582.0
2022-12-14,16.3,16.45,16.0,16.1,54873.0
2022-12-15,16.2,16.2,14.35,15.3,236643.0
2022-12-16,15.45,15.7,15.1,15.3,40749.0
2022-12-19,15.7,16.3,15.15,15.9,143532.0
2022-12-20,15.9,17.5,15.7,16.5,763882.0
2022-12-21,16.75,17.0,15.15,15.3,281801.0
2022-12-22,15.15,15.65,14.8,15.05,62243.0
2022-12-23,15.0,15.0,14.4,14.5,78446.0
2022-12-26,14.5,15.15,14.5,15.0,41443.0
2022-12-27,14.9,15.4,14.9,15.1,30567.0
2022-12-28,15.4,15.5,15.1,15.25,51949.0
2022-12-29,15.05,15.6,15.0,15.2,59111.0
2022-12-30,15.5,15.95,15.1,15.4,166652.0
2023-01-02,15.6,16.3,15.35,16.15,203781.0
2023-01-03,16.15,16.3,15.65,16.1,64228.0
2023-01-04,16.15,16.15,15.6,15.65,50815.0
2023-01-05,15.7,15.95,15.5,15.65,14660.0
2023-01-06,15.65,15.95,15.65,15.65,12114.0
2023-01-09,15.95,16.0,15.25,15.5,28002.0
2023-01-10,15.5,15.75,15.15,15.3,46865.0
2023-01-11,15.5,15.9,15.4,15.4,15125.0
2023-01-12,15.5,15.75,15.2,15.3,11948.0
2023-01-13,15.25,15.45,15.25,15.35,23406.0
2023-01-16,15.35,15.65,15.2,15.3,27323.0
2023-01-17,15.2,15.55,15.2,15.4,28512.0
2023-01-18,15.7,15.7,15.2,15.25,11835.0
2023-01-19,15.2,15.5,14.95,15.1,22487.0
2023-01-20,15.1,15.45,15.1,15.2,14616.0
2023-01-23,15.45,15.45,15.1,15.1,13397.0
2023-01-24,15.15,15.3,14.8,14.95,31804.0
2023-01-25,14.9,15.0,14.65,14.8,25203.0
2023-01-27,14.8,14.85,14.2,14.3,40809.0
2023-01-30,14.35,14.7,14.25,14.3,19136.0
2023-01-31,14.25,14.5,14.25,14.3,64344.0
2023-02-01,14.5,14.5,13.9,14.05,41690.0
2023-02-02,14.0,14.25,13.95,14.1,41543.0
2023-02-03,14.35,14.35,13.6,13.85,28025.0
2023-02-06,13.8,14.25,13.6,13.65,37385.0
2023-02-07,13.75,14.0,13.55,13.65,24125.0
2023-02-08,14.0,14.0,13.65,13.8,28223.0
2023-02-09,13.8,14.0,13.65,13.9,33284.0
2023-02-10,13.9,14.1,13.75,13.8,21245.0
2023-02-13,13.65,13.9,13.6,13.65,25381.0
2023-02-14,13.8,13.85,13.3,13.55,38443.0
2023-02-15,13.55,13.55,13.25,13.3,28901.0
2023-02-16,13.3,13.5,13.2,13.3,11976.0
2023-02-17,13.5,13.55,13.45,13.5,15786.0
2023-02-20,13.9,13.9,13.35,13.4,15491.0
2023-02-21,13.6,13.6,13.15,13.2,6447.0
2023-02-22,13.35,13.5,12.85,13.3,44764.0
2023-02-23,13.5,13.5,13.05,13.1,20511.0
2023-02-24,13.3,13.3,12.9,13.0,35307.0
2023-02-27,12.95,13.25,11.1,11.45,191413.0
2023-02-28,11.7,11.8,10.8,11.6,61979.0
2023-03-01,11.55,12.6,11.5,12.35,27768.0
2023-03-02,12.35,12.95,12.35,12.85,55062.0
2023-03-03,12.95,13.0,12.5,12.7,20435.0
2023-03-06,12.4,12.9,12.35,12.75,15467.0
2023-03-08,12.75,12.85,12.6,12.75,49571.0
2023-03-09,12.95,13.0,12.5,12.65,16999.0
2023-03-10,12.5,12.65,11.45,11.65,168268.0
2023-03-13,11.9,11.9,11.2,11.25,55417.0
2023-03-14,11.4,11.55,11.2,11.4,20366.0
2023-03-15,11.7,11.8,11.05,11.5,39002.0
2023-03-16,11.4,11.65,11.2,11.4,53656.0
2023-03-17,11.7,11.85,11.15,11.4,27032.0
2023-03-20,11.0,11.6,10.85,11.0,74589.0
2023-03-21,11.0,11.2,10.95,11.0,33583.0
2023-03-22,11.0,11.2,10.65,10.9,53162.0
2023-03-23,10.85,11.35,10.85,11.0,40747.0
2023-03-24,10.9,11.15,10.7,10.7,55739.0
2023-03-27,10.8,10.9,10.35,10.4,76455.0
2023-03-28,10.9,10.9,10.4,10.6,75817.0
2023-03-29,10.5,11.1,10.45,10.55,67761.0
2023-03-31,10.6,11.75,10.55,11.15,226589.0
2023-04-03,11.4,13.2,11.15,12.9,127643.0
2023-04-05,13.0,13.2,11.6,12.1,129271.0
2023-04-06,12.45,12.45,11.5,12.05,45240.0
2023-04-10,12.5,12.5,11.5,11.85,35059.0
2023-04-11,12.25,13.35,11.7,13.1,385063.0
2023-04-12,13.25,13.45,12.55,12.75,261270.0
2023-04-13,12.75,13.45,12.55,13.0,77438.0
2023-04-17,13.3,13.3,12.55,12.65,318032.0
2023-04-18,12.8,13.0,12.65,12.9,45150.0
2023-04-19,13.0,13.0,12.5,12.6,30715.0
2023-04-20,12.6,12.8,12.5,12.55,28953.0
2023-04-21,12.6,12.6,12.05,12.2,30220.0
2023-04-24,12.2,12.7,11.95,12.35,35633.0
2023-04-25,12.35,12.65,12.2,12.5,23398.0
2023-04-26,12.7,12.7,12.25,12.55,13187.0
2023-04-27,12.35,12.8,12.35,12.7,32800.0
2023-04-28,12.75,12.85,12.55,12.75,38587.0
2023-05-02,12.75,12.9,12.6,12.7,19301.0
2023-05-03,12.7,12.95,12.35,12.85,47637.0
2023-05-04,12.85,13.35,12.6,12.9,94715.0
2023-05-05,12.95,13.0,12.7,12.85,15433.0
2023-05-08,12.95,14.25,12.8,13.8,292716.0
2023-05-09,13.8,14.0,13.5,13.5,29964.0
2023-05-10,13.5,13.5,13.1,13.1,27844.0
2023-05-11,13.1,13.4,13.1,13.2,32865.0
2023-05-12,13.4,13.4,13.0,13.05,20811.0
2023-05-15,13.1,13.7,13.05,13.25,40407.0
2023-05-16,13.45,13.45,13.05,13.1,20477.0
2023-05-17,13.05,13.2,12.8,12.85,44517.0
2023-05-18,13.0,13.2,12.75,12.8,122584.0
2023-05-19,12.95,13.0,12.7,12.95,43391.0
2023-05-22,12.95,13.0,12.6,12.95,33677.0
2023-05-23,13.05,13.05,12.75,12.8,36906.0
2023-05-24,12.8,13.45,12.7,13.3,91142.0
2023-05-25,13.3,13.9,13.05,13.55,107762.0
2023-05-26,13.55,13.95,13.35,13.55,69704.0
2023-05-29,13.6,13.9,13.5,13.5,59427.0
2023-05-30,13.75,13.75,13.1,13.4,7102.0
2023-05-31,13.55,13.55,12.6,12.9,73407.0
2023-06-01,13.0,13.25,12.9,13.15,14121.0
2023-06-02,13.2,13.25,12.95,12.95,34554.0
2023-06-05,13.2,13.3,12.95,13.05,25800.0
2023-06-06,13.25,13.25,12.85,12.9,53223.0
2023-06-07,12.9,13.95,12.9,13.4,379055.0
2023-06-08,13.4,13.75,12.95,13.0,72170.0
2023-06-09,13.0,13.4,13.0,13.2,47457.0
2023-06-12,13.1,13.4,13.05,13.15,19511.0
2023-06-13,13.1,13.5,13.1,13.25,69487.0
2023-06-14,13.2,13.8,13.05,13.6,137447.0
2023-06-15,13.75,13.8,13.15,13.25,53466.0
2023-06-16,13.25,13.5,13.1,13.45,35712.0
2023-06-19,13.25,13.7,13.15,13.2,35306.0
2023-06-20,13.35,13.6,13.15,13.4,54384.0
2023-06-21,13.4,13.6,13.2,13.4,28021.0
2023-06-22,13.6,13.65,13.2,13.25,63592.0
2023-06-23,13.25,13.25,13.0,13.1,25770.0
2023-06-26,13.25,13.5,13.05,13.25,39287.0
2023-06-27,13.25,13.45,13.1,13.15,21179.0
2023-06-28,13.1,13.25,13.05,13.05,18003.0
2023-06-30,12.95,13.5,12.95,13.2,35450.0
2023-07-03,13.45,13.45,13.15,13.4,32766.0
2023-07-04,13.5,13.5,13.15,13.2,21348.0
2023-07-05,13.2,13.5,13.15,13.2,29920.0
2023-07-06,13.2,13.35,13.1,13.25,35865.0
2023-07-07,13.25,13.3,12.55,12.9,80502.0
2023-07-10,12.9,13.0,12.75,12.8,21224.0
2023-07-11,12.8,13.0,12.7,12.8,17037.0
2023-07-12,13.0,13.0,12.6,12.7,41933.0
2023-07-13,12.75,12.85,12.65,12.7,20198.0
2023-07-14,12.7,12.8,12.6,12.65,27678.0
2023-07-17,12.6,12.9,12.6,12.75,24144.0
2023-07-18,12.7,12.85,12.55,12.6,25982.0
2023-07-19,12.6,12.75,12.55,12.65,25872.0
2023-07-20,12.75,12.75,12.45,12.55,61917.0
2023-07-21,12.5,12.6,12.5,12.5,47815.0
2023-07-24,12.5,12.5,12.25,12.3,49225.0
2023-07-25,12.4,12.6,12.3,12.45,26571.0
2023-07-26,12.5,12.55,12.35,12.5,19922.0
2023-07-27,12.6,12.6,12.4,12.4,25966.0
2023-07-28,12.4,12.5,12.25,12.35,39887.0
2023-07-31,12.35,12.55,12.3,12.35,38504.0
2023-08-01,12.5,12.6,12.35,12.45,46949.0
2023-08-02,12.5,12.5,12.2,12.2,45963.0
2023-08-03,12.4,12.4,12.15,12.25,15672.0
2023-08-04,12.45,12.45,12.25,12.3,14086.0
2023-08-07,12.2,12.4,12.15,12.15,62814.0
2023-08-08,12.15,12.4,12.15,12.25,17359.0
2023-08-09,12.25,12.35,12.1,12.2,38536.0
2023-08-10,12.2,12.3,12.15,12.15,32586.0
2023-08-11,12.25,13.5,12.15,12.9,512852.0
2023-08-14,12.9,13.2,12.6,12.75,104174.0
2023-08-16,12.6,13.9,12.6,13.5,439086.0
2023-08-17,13.6,13.8,13.25,13.35,182585.0
2023-08-18,13.35,13.5,12.95,13.05,89271.0
2023-08-21,13.25,13.4,13.0,13.1,38510.0
2023-08-22,13.2,13.8,12.95,13.05,91362.0
2023-08-23,13.15,13.75,13.1,13.25,210215.0
2023-08-24,13.3,13.5,13.15,13.3,103660.0
2023-08-25,13.35,13.7,13.15,13.45,73262.0
2023-08-28,13.5,13.6,13.0,13.2,142296.0
2023-08-29,13.2,13.4,13.05,13.1,57892.0
2023-08-30,13.25,13.45,13.0,13.1,122109.0
2023-08-31,13.1,13.3,12.9,12.95,99024.0
2023-09-01,13.0,13.15,12.95,13.05,72154.0
2023-09-04,13.1,13.45,13.0,13.25,193449.0
2023-09-05,13.45,15.9,13.35,15.9,4035942.0
2023-09-06,16.1,17.4,15.05,16.75,2250822.0
2023-09-07,17.05,18.55,16.6,17.0,1367174.0
2023-09-08,17.4,17.4,16.1,16.25,426389.0
2023-09-11,16.5,16.65,16.05,16.15,138717.0
2023-09-12,16.35,16.35,14.8,14.95,333266.0
2023-09-13,14.85,15.8,14.55,15.65,221663.0
2023-09-14,15.95,16.0,15.5,15.55,81241.0
2023-09-15,15.5,16.5,15.4,16.2,340043.0
2023-09-18,16.45,16.45,15.5,15.75,97704.0
2023-09-20,15.7,15.7,15.05,15.2,123029.0
2023-09-21,15.15,15.75,15.1,15.2,71633.0
2023-09-22,15.2,15.4,14.95,15.05,51555.0
2023-09-25,15.3,15.65,15.15,15.4,75749.0
2023-09-26,15.5,15.5,15.05,15.1,130187.0
2023-09-27,15.3,15.4,14.8,15.0,56339.0
2023-09-28,15.0,15.3,14.75,14.8,91717.0
2023-09-29,14.8,15.0,14.6,14.7,34641.0
2023-10-03,14.8,15.0,14.6,14.85,39180.0
2023-10-04,15.0,15.0,14.8,14.95,50070.0
2023-10-05,14.9,15.0,14.55,14.7,32080.0
2023-10-06,14.95,15.25,14.75,15.05,49813.0
2023-10-09,15.05,15.15,14.6,14.7,38518.0
2023-10-10,14.9,15.05,14.4,14.6,69657.0
2023-10-11,14.65,16.3,14.6,16.15,721276.0
2023-10-12,16.4,16.4,15.5,15.9,198664.0
2023-10-13,16.0,16.0,15.5,15.55,105239.0
2023-10-16,15.8,16.0,15.15,15.4,205377.0
2023-10-17,15.45,15.7,15.25,15.35,93352.0
2023-10-18,15.35,15.5,14.95,15.1,108343.0
2023-10-19,15.1,15.2,14.8,14.95,83492.0
2023-10-20,15.05,15.4,14.8,15.0,42346.0
2023-10-23,15.2,15.2,13.55,13.8,97044.0
2023-10-25,14.05,14.55,13.8,14.05,422522.0
2023-10-26,13.85,14.1,13.25,13.5,142623.0
2023-10-27,13.5,14.1,13.5,13.7,328751.0
2023-10-30,13.7,14.1,13.65,13.75,229545.0
2023-10-31,13.75,13.95,13.6,13.8,42043.0
2023-11-01,14.0,14.1,13.7,13.8,276966.0
2023-11-02,13.8,14.2,13.8,13.9,500116.0
2023-11-03,14.1,14.4,14.0,14.05,255031.0
2023-11-06,14.0,14.7,14.0,14.5,814688.0
2023-11-07,14.7,14.7,14.4,14.45,156940.0
2023-11-08,14.75,15.05,14.6,14.8,431103.0
2023-11-09,14.75,15.05,14.35,14.45,635529.0
2023-11-10,14.65,16.2,14.45,15.65,1345542.0
2023-11-12,15.6,16.2,15.6,15.75,84669.0
2023-11-13,15.7,15.8,15.3,15.45,327788.0
2023-11-15,15.5,15.75,15.25,15.35,473832.0
2023-11-16,15.35,15.45,15.05,15.2,872176.0
2023-11-17,15.1,15.75,14.95,15.5,955462.0
2023-11-20,15.35,17.8,15.35,16.95,2020875.0
2023-11-21,17.75,18.2,17.3,17.95,1713511.0
2023-11-22,18.15,18.15,16.4,16.7,653775.0
2023-11-23,16.7,17.15,16.5,16.7,274110.0
2023-11-24,16.9,17.3,16.8,17.05,498725.0
2023-11-28,17.45,17.5,16.6,16.75,705319.0
2023-11-29,17.0,17.0,16.5,16.55,734543.0
2023-11-30,16.6,16.75,15.8,15.95,525311.0
2023-12-01,16.2,16.5,15.9,16.15,484883.0
2023-12-04,16.5,16.5,16.05,16.15,77410.0
2023-12-05,16.3,16.35,15.75,16.05,221430.0
2023-12-06,16.4,17.6,16.35,17.0,972702.0
2023-12-07,17.2,17.65,16.5,17.1,323111.0
2023-12-08,17.35,17.35,16.65,16.75,146779.0
2023-12-11,17.0,17.0,16.45,16.55,219606.0
2023-12-12,16.75,16.95,16.35,16.45,192802.0
2023-12-13,16.6,16.75,16.2,16.4,132498.0
2023-12-14,16.5,16.8,16.15,16.35,155896.0
2023-12-15,16.5,16.5,16.15,16.2,81797.0
2023-12-18,16.25,19.4,16.25,18.9,2511418.0
2023-12-19,19.6,19.8,18.05,18.95,1926599.0
2023-12-20,18.7,19.8,17.9,18.15,1198050.0
2023-12-21,18.4,19.3,17.6,18.95,753780.0
2023-12-22,19.35,19.35,18.15,18.35,283104.0
2023-12-26,18.6,18.85,17.75,18.2,254886.0
2023-12-27,18.25,18.7,17.3,17.5,285999.0
2023-12-28,17.6,17.7,16.5,16.65,429151.0
2023-12-29,16.8,17.95,16.75,17.5,225203.0
2024-01-01,17.7,19.05,17.55,18.3,536360.0
2024-01-02,18.75,20.8,18.45,20.25,2746516.0
2024-01-03,20.45,20.7,19.6,19.85,615802.0
2024-01-04,19.9,20.2,19.45,19.55,357173.0
2024-01-05,19.6,19.8,18.4,19.25,570521.0
2024-01-08,19.25,20.2,19.05,19.65,542363.0
2024-01-09,19.8,20.7,19.25,20.35,692641.0
2024-01-10,20.05,20.45,19.8,19.95,359423.0
2024-01-11,19.95,20.2,19.45,19.7,178537.0
2024-01-12,19.7,20.4,19.2,19.35,395051.0
2024-01-15,19.45,20.55,19.3,19.95,545691.0
2024-01-16,20.55,20.6,19.0,19.55,438396.0
2024-01-17,19.55,19.8,18.85,19.15,172470.0
2024-01-18,19.05,19.8,18.4,19.2,199832.0
2024-01-19,19.4,20.4,19.15,19.75,464185.0
2024-01-20,20.0,20.1,19.4,19.5,144974.0
2024-01-23,19.5,19.75,17.9,18.25,307197.0
2024-01-24,18.3,18.6,17.7,17.9,522103.0
2024-01-25,18.05,18.95,18.0,18.55,505999.0
2024-01-29,18.85,19.35,18.35,18.55,473863.0
2024-01-30,18.8,19.9,18.1,19.3,881136.0
2024-01-31,19.3,19.8,18.85,18.95,461047.0
2024-02-01,19.25,19.4,18.5,18.65,328657.0
2024-02-02,18.85,19.2,18.4,18.5,312814.0
2024-02-05,18.7,19.35,18.0,18.15,255041.0
2024-02-06,18.45,21.75,18.0,21.75,4434228.0
2024-02-07,21.9,24.35,20.5,23.05,6061557.0
2024-02-08,23.7,23.9,22.4,23.35,1453883.0
2024-02-09,24.0,24.0,21.0,21.95,1023722.0
2024-02-12,22.0,22.4,19.3,19.65,702268.0
2024-02-13,19.05,20.15,18.7,19.25,471798.0
2024-02-14,18.85,20.4,18.85,20.25,410323.0
2024-02-15,20.85,21.2,20.45,20.7,326424.0
2024-02-16,21.05,21.7,20.85,21.25,374675.0
2024-02-19,21.65,21.65,20.6,20.7,221074.0
2024-02-20,20.7,21.15,20.0,20.15,259170.0
2024-02-21,20.25,21.0,19.45,19.7,426046.0
2024-02-22,19.9,20.85,19.2,20.35,471362.0
2024-02-23,20.5,20.7,19.8,19.9,205478.0
2024-02-26,20.0,20.1,19.0,19.2,349526.0
2024-02-27,19.35,19.95,18.55,18.9,351210.0
2024-02-28,19.0,19.3,17.9,18.3,353315.0
2024-02-29,18.3,18.5,17.95,18.35,104803.0
2024-03-01,18.55,19.35,18.3,19.15,375337.0
2024-03-02,19.4,19.8,19.0,19.3,87777.0
2024-03-04,19.3,20.5,18.6,19.6,1032288.0
2024-03-05,19.6,20.7,19.15,19.4,430469.0
2024-03-06,19.5,19.6,18.35,18.85,259658.0
2024-03-07,18.6,19.2,18.6,18.75,93568.0
2024-03-11,18.95,18.95,17.9,18.2,166822.0
2024-03-12,18.15,18.25,16.6,16.85,278542.0
2024-03-13,16.6,17.05,15.2,15.4,326514.0
2024-03-14,15.3,16.15,14.8,15.75,323350.0
2024-03-15,15.9,16.3,15.55,15.9,139280.0
2024-03-18,15.65,16.3,15.6,15.95,101099.0
2024-03-19,15.65,16.1,15.15,15.35,156688.0
2024-03-20,15.25,15.65,14.55,14.9,175876.0
2024-03-21,15.0,16.5,14.95,16.05,618976.0
2024-03-22,16.05,16.15,15.6,15.75,155728.0
2024-03-26,16.0,16.15,15.4,15.5,123171.0
2024-03-27,15.4,15.75,14.5,14.8,307388.0
2024-03-28,15.0,15.45,14.55,14.65,164925.0
2024-04-01,14.5,16.2,14.4,16.1,220502.0
2024-04-02,16.05,16.75,15.8,16.6,154019.0
2024-04-03,16.95,17.6,16.55,17.3,301469.0
2024-04-04,17.95,20.2,17.1,19.55,1437274.0
2024-04-05,19.55,21.25,18.8,20.85,1624947.0
2024-04-08,21.55,21.55,19.6,19.75,367879.0
2024-04-09,19.95,20.9,19.4,19.5,248792.0
2024-04-10,19.55,20.2,19.2,19.35,168929.0
2024-04-12,19.05,19.9,18.3,18.9,238854.0
2024-04-15,17.8,19.3,17.3,19.1,367991.0
2024-04-16,19.1,21.0,18.5,21.0,1304407.0
2024-04-18,21.4,23.1,21.15,22.15,1986566.0
2024-04-19,22.0,22.25,20.9,22.1,346575.0
2024-04-22,23.05,23.2,21.6,22.45,371283.0
2024-04-23,22.05,22.9,21.8,22.05,245867.0
2024-04-24,22.0,22.5,21.9,22.0,287056.0
2024-04-25,22.25,22.25,21.0,21.35,173168.0
2024-04-26,21.35,21.8,21.35,21.6,106113.0
2024-04-29,21.95,21.95,21.5,21.7,117777.0
2024-04-30,22.0,22.7,21.65,22.05,256537.0
2024-05-02,22.35,23.25,21.15,22.9,800970.0
2024-05-03,22.95,23.0,22.4,22.6,178059.0
2024-05-06,22.75,22.85,22.15,22.45,193243.0
2024-05-07,23.0,23.0,21.8,22.1,146988.0
2024-05-08,22.5,22.7,21.95,22.05,86039.0
2024-05-09,22.2,22.25,20.15,20.8,112511.0
2024-05-10,20.4,20.85,20.15,20.6,42582.0
2024-05-13,20.6,20.85,19.6,20.2,52836.0
2024-05-14,19.8,22.05,19.7,21.55,173093.0
2024-05-15,21.75,22.25,21.0,21.5,73362.0
2024-05-16,21.9,21.9,21.0,21.05,55536.0
2024-05-17,20.6,22.2,20.6,21.45,160020.0
2024-05-18,21.45,21.85,21.0,21.4,11776.0
2024-05-21,21.0,22.0,20.5,21.25,167699.0
2024-05-22,21.4,21.45,20.7,21.0,65009.0
2024-05-23,21.05,21.35,20.6,20.7,44899.0
2024-05-24,20.95,21.05,20.3,20.55,45103.0
2024-05-27,20.6,20.9,20.1,20.25,58758.0
2024-05-28,20.0,20.45,19.85,19.9,46062.0
2024-05-29,19.7,21.1,19.7,20.7,109213.0
2024-05-30,20.95,21.1,19.65,20.1,68494.0
2024-05-31,20.0,20.3,19.55,19.7,64092.0
2024-06-03,19.75,20.45,19.65,19.8,46103.0
2024-06-04,20.15,20.15,17.85,18.35,220207.0
2024-06-05,18.35,18.9,17.5,18.3,96204.0
2024-06-06,18.45,19.85,18.35,19.55,83179.0
2024-06-07,19.9,21.5,19.4,20.0,186798.0
2024-06-10,20.9,20.9,20.01,20.21,53281.0
2024-06-11,20.38,20.8,19.87,20.21,66456.0
2024-06-12,20.25,20.5,19.56,19.97,82620.0
2024-06-13,20.28,20.28,19.85,19.91,41243.0
2024-06-14,19.95,20.9,19.88,20.02,186163.0
2024-06-18,20.05,20.49,19.5,19.63,124568.0
2024-06-19,19.85,19.85,19.01,19.18,76697.0
2024-06-20,19.38,19.58,19.0,19.09,120780.0
2024-06-21,19.3,19.53,19.05,19.46,77355.0
2024-06-24,19.65,20.14,19.4,19.46,127706.0
2024-06-25,19.49,19.9,19.26,19.32,89751.0
2024-06-26,19.3,19.87,19.0,19.53,137472.0
2024-06-27,19.53,19.64,19.36,19.57,88836.0
2024-06-28,19.79,19.79,19.17,19.61,135717.0
2024-07-01,19.74,20.75,19.62,20.5,204523.0
2024-07-02,20.51,21.8,20.02,21.16,666799.0
2024-07-03,21.48,21.79,20.9,20.93,147120.0
2024-07-04,20.8,21.18,20.15,20.28,47598.0
2024-07-05,20.7,21.8,20.1,21.02,168096.0
2024-07-08,21.44,21.92,20.5,21.02,289215.0
2024-07-09,21.24,21.99,20.95,20.97,160139.0
2024-07-10,21.23,21.23,20.3,20.62,76323.0
2024-07-11,20.95,20.95,20.3,20.34,61478.0
2024-07-12,20.25,21.4,20.25,21.1,149216.0
2024-07-15,21.47,21.47,20.58,20.73,62068.0
2024-07-16,20.97,20.97,20.12,20.27,83161.0
2024-07-18,20.32,21.25,19.81,20.47,199309.0
2024-07-19,20.67,20.7,19.81,20.07,83057.0
2024-07-22,19.95,20.07,19.8,19.84,36919.0
2024-07-23,19.85,20.24,19.0,19.75,188638.0
2024-07-24,19.52,21.72,19.52,21.6,602057.0
2024-07-25,21.5,23.27,21.05,21.74,791043.0
2024-07-26,21.74,22.19,21.12,21.25,112955.0
2024-07-29,21.06,21.46,20.61,20.96,101884.0
2024-07-30,20.52,21.65,20.52,21.13,72161.0
2024-07-31,21.0,21.43,20.7,20.83,91101.0
2024-08-01,21.39,21.39,20.25,20.46,86999.0
2024-08-02,20.5,20.96,19.86,20.77,100794.0
2024-08-05,20.52,20.52,19.39,19.85,187224.0
2024-08-06,20.25,20.39,19.11,19.4,66892.0
2024-08-07,19.67,21.45,19.02,20.3,310962.0
2024-08-08,20.05,20.86,20.0,20.12,36935.0
2024-08-09,20.53,22.78,20.2,21.83,923112.0
2024-08-12,21.99,22.4,21.23,21.38,263170.0
2024-08-13,21.78,21.78,20.2,20.31,96181.0
2024-08-14,20.37,20.59,19.81,19.94,41942.0
2024-08-16,19.95,20.44,19.95,20.11,42862.0
2024-08-19,20.34,22.8,19.84,22.39,564336.0
2024-08-20,25.0,25.35,21.74,23.53,3481112.0
2024-08-21,23.5,24.84,22.8,23.04,896280.0
2024-08-22,23.37,23.9,22.51,22.61,161195.0
2024-08-23,22.6,23.49,21.9,22.25,367057.0
2024-08-26,22.7,23.45,22.1,22.64,98490.0
2024-08-27,22.88,22.88,21.02,21.53,221554.0
2024-08-28,21.68,21.99,20.82,20.98,202537.0
2024-08-29,21.19,21.8,20.65,20.73,139786.0
2024-08-30,20.93,21.44,20.06,20.98,521817.0
2024-09-02,21.3,22.74,20.85,22.14,637951.0
2024-09-03,22.54,22.81,22.0,22.58,282024.0
2024-09-04,21.62,22.48,21.62,22.01,91885.0
2024-09-05,22.0,22.74,21.85,21.98,185383.0
2024-09-06,22.17,22.49,21.55,21.97,269622.0
2024-09-09,21.96,22.22,21.52,21.79,121701.0
2024-09-10,21.73,22.29,21.73,21.95,64646.0
2024-09-11,21.95,22.47,21.95,22.03,112487.0
2024-09-12,22.07,22.3,21.45,21.56,85942.0
2024-09-13,21.88,22.5,21.6,21.96,401079.0
2024-09-16,22.38,22.4,21.81,21.83,85258.0
2024-09-17,21.5,22.0,21.5,21.78,58868.0
2024-09-18,21.96,21.96,20.8,21.15,179999.0
2024-09-19,21.43,21.44,20.45,20.53,138484.0
2024-09-20,20.99,21.4,20.68,21.09,123072.0
2024-09-23,21.1,21.1,20.85,20.91,50349.0
2024-09-24,20.96,21.45,20.65,20.87,81450.0
2024-09-25,20.98,20.99,19.97,20.02,267600.0
2024-09-26,20.28,20.49,19.99,20.19,111644.0
2024-09-27,20.64,20.64,20.02,20.16,64691.0
2024-09-30,20.16,20.6,20.0,20.15,159350.0
2024-10-01,20.28,21.0,20.05,20.71,200887.0
2024-10-03,20.98,20.98,20.11,20.19,85454.0
2024-10-04,20.19,20.49,19.45,19.61,139100.0
2024-10-07,19.87,19.87,18.61,18.77,107194.0
2024-10-08,19.0,19.68,18.69,19.28,68949.0
2024-10-09,19.66,20.66,19.31,20.28,167954.0
2024-10-10,20.44,20.89,20.15,20.31,125314.0
2024-10-11,20.44,20.59,19.82,19.92,61127.0
2024-10-14,20.25,20.25,19.65,19.88,83934.0
2024-10-15,19.55,20.0,19.52,19.58,40402.0
2024-10-16,19.75,19.75,19.0,19.27,79476.0
2024-10-17,19.27,19.47,18.8,18.94,71043.0
2024-10-18,18.82,19.19,18.65,19.06,42771.0
2024-10-21,19.44,19.44,18.7,18.72,23218.0
2024-10-22,18.75,18.91,18.01,18.05,31415.0
2024-10-23,18.0,18.39,17.22,17.52,145645.0
2024-10-24,17.33,17.98,17.12,17.84,76989.0
2024-10-25,17.84,17.85,17.25,17.4,49865.0
2024-10-28,17.1,17.87,17.1,17.23,51233.0
2024-10-29,17.79,17.79,16.91,17.09,62044.0
2024-10-30,17.45,17.95,17.09,17.71,50401.0
2024-10-31,17.41,18.5,17.41,17.96,68500.0
2024-11-01,18.48,18.77,18.02,18.62,27538.0
2024-11-04,19.05,20.1,18.89,19.21,143263.0
2024-11-05,19.26,19.96,19.26,19.38,76329.0
2024-11-06,19.4,19.69,18.86,19.47,46019.0
2024-11-07,19.48,19.51,18.92,19.09,25913.0
2024-11-08,19.19,19.19,18.6,18.77,35145.0
2024-11-11,19.15,19.3,18.9,19.08,28894.0
2024-11-12,19.24,19.24,18.0,18.23,37599.0
2024-11-13,18.22,18.22,17.11,17.23,57046.0
2024-11-14,17.58,17.72,17.3,17.58,23935.0
2024-11-18,17.58,17.7,16.62,16.92,49551.0
2024-11-19,17.23,17.64,16.77,16.96,74298.0
2024-11-21,16.8,17.12,16.2,16.33,54297.0
2024-11-22,16.6,16.84,16.37,16.71,24507.0
2024-11-25,16.99,17.55,16.99,17.15,67404.0
2024-11-26,17.49,17.55,16.2,17.15,39957.0
2024-11-27,17.44,17.59,17.16,17.33,23814.0
2024-11-28,17.69,18.1,17.31,17.72,55293.0
2024-11-29,17.98,18.4,17.66,17.89,22201.0
2024-12-02,18.3,19.34,18.01,18.86,169219.0
2024-12-03,18.96,19.21,18.71,18.99,68582.0
2024-12-04,18.64,20.0,18.61,19.0,84265.0
2024-12-05,19.0,19.55,18.7,19.34,43020.0
2024-12-06,19.49,19.6,18.95,19.15,65135.0
2024-12-09,19.15,20.75,19.15,19.7,265881.0
2024-12-10,19.89,19.93,19.3,19.56,51141.0
2024-12-11,19.7,19.74,19.25,19.3,36732.0
2024-12-12,19.5,19.5,19.07,19.21,86996.0
2024-12-13,19.21,19.48,18.74,19.0,44201.0
2024-12-16,18.83,20.13,18.83,19.56,145246.0
2024-12-17,19.0,19.64,18.76,18.95,55572.0
2024-12-18,18.7,19.43,18.6,18.68,36704.0
2024-12-19,18.68,19.03,18.46,18.81,87725.0
2024-12-20,18.99,19.1,18.71,18.75,78285.0
2024-12-23,18.75,18.93,18.1,18.16,51379.0
2024-12-24,18.05,18.3,17.31,17.97,53752.0
2024-12-26,17.52,18.08,17.52,17.78,24032.0
2024-12-27,17.55,17.99,17.55,17.83,26303.0
2024-12-30,17.53,17.92,17.53,17.63,28077.0
2024-12-31,17.36,18.97,17.35,18.18,10838.0
2025-01-01,18.2,18.79,18.11,18.18,79880.0
2025-01-02,18.48,18.68,18.18,18.52,22543.0
2025-01-03,18.44,18.99,18.17,18.3,37626.0
2025-01-06,18.17,18.39,17.38,17.44,42507.0
2025-01-07,17.57,18.15,17.57,18.01,36407.0
2025-01-08,18.3,18.3,18.0,18.01,28787.0
2025-01-09,18.03,18.54,17.5,18.06,40184.0
2025-01-10,18.49,18.49,17.0,17.2,68615.0
2025-01-13,17.0,17.6,16.25,16.89,145736.0
2025-01-14,17.08,17.28,16.71,17.01,37281.0
2025-01-15,16.78,17.38,16.78,17.1,50716.0
2025-01-16,17.39,17.39,17.0,17.19,28612.0
2025-01-17,17.01,17.45,16.5,16.88,53823.0
2025-01-20,17.19,17.19,16.89,17.06,18396.0
2025-01-21,17.06,17.19,16.48,16.51,43094.0
2025-01-22,16.52,16.87,16.25,16.59,17317.0
2025-01-23,16.55,17.5,16.3,16.56,99971.0
2025-01-24,16.86,16.86,14.6,15.14,183985.0
2025-01-27,15.14,15.14,14.5,14.54,430577.0
2025-01-28,14.8,15.95,14.5,15.39,97490.0
2025-01-29,15.65,16.4,15.46,16.08,88820.0
2025-01-30,16.0,18.2,16.0,17.83,197686.0
2025-01-31,18.25,20.05,17.85,19.48,491499.0
2025-02-01,19.49,21.2,18.53,20.07,259985.0
2025-02-03,20.06,20.06,19.5,19.62,68335.0
2025-02-04,19.98,20.25,19.5,19.9,50915.0
2025-02-05,20.0,20.0,19.0,19.24,45610.0
2025-02-06,19.65,20.8,18.5,20.43,263486.0
2025-02-07,20.0,20.39,19.11,19.5,102317.0
2025-02-10,20.0,20.0,19.0,19.35,47454.0
2025-02-11,19.97,20.6,19.0,20.28,297837.0
2025-02-12,20.48,22.69,20.36,22.22,1727835.0
2025-02-13,22.18,23.5,21.2,22.61,603448.0
2025-02-14,23.4,23.4,21.92,22.43,244385.0
2025-02-17,22.95,23.25,22.0,22.52,221842.0
2025-02-18,23.49,23.49,22.0,22.95,308089.0
2025-02-19,23.29,27.0,23.01,25.26,874064.0
2025-02-20,25.5,29.0,25.07,27.13,1263696.0
2025-02-21,27.8,31.2,27.5,30.22,1149173.0
2025-02-24,32.0,36.26,31.3,36.26,5656998.0
2025-02-25,35.0,36.0,34.44,34.44,219078.0
2025-02-27,32.71,32.71,32.71,32.71,7447.0
2025-02-28,31.07,31.07,31.07,31.07,9825.0
2025-03-03,29.51,29.51,29.51,29.51,89287.0
2025-03-04,28.08,28.08,28.03,28.03,8686.0
2025-03-05,26.62,26.62,26.62,26.62,49996.0
2025-03-06,25.28,25.28,25.28,25.28,8457.0
2025-03-07,24.01,26.54,24.01,26.54,356098.0
2025-03-10,27.6,27.8,25.21,25.21,165006.0
2025-03-11,23.95,23.95,23.94,23.94,213297.0
2025-03-12,22.74,24.1,22.74,23.81,371268.0
2025-03-13,23.0,25.0,22.61,25.0,340195.0
2025-03-17,24.05,24.5,23.75,23.75,78720.0
2025-03-18,23.51,24.93,22.71,24.25,90168.0
2025-03-19,25.45,25.46,24.26,25.46,63768.0
2025-03-20,26.64,26.73,26.5,26.73,20941.0
2025-03-21,27.7,28.06,27.05,28.06,98970.0
2025-03-24,29.4,29.46,28.5,29.46,15486.0
2025-03-25,30.93,30.93,30.93,30.93,44249.0
2025-03-26,31.54,31.54,30.31,31.54,119962.0
2025-03-27,32.17,32.17,32.17,32.17,30533.0
2025-03-28,32.81,32.81,32.81,32.81,28661.0
2025-04-01,33.46,33.46,33.46,33.46,16372.0
2025-04-02,34.12,34.12,34.12,34.12,30920.0
2025-04-03,34.8,34.8,34.8,34.8,22441.0
2025-04-04,35.49,35.49,35.49,35.49,37274.0
2025-04-07,36.19,36.19,36.19,36.19,155576.0
2025-04-08,36.91,36.91,36.91,36.91,36527.0
2025-04-09,37.64,37.64,37.64,37.64,46587.0
2025-04-11,38.39,38.39,38.39,38.39,30197.0
2025-04-15,39.15,39.15,39.15,39.15,31442.0
2025-04-16,39.93,39.93,39.93,39.93,23110.0
2025-04-17,40.72,40.72,40.72,40.72,21244.0
2025-04-21,39.9,39.9,39.9,39.9,281187.0
2025-04-22,39.1,39.1,39.1,39.1,272985.0
2025-04-23,38.31,38.31,38.31,38.31,29895.0
2025-04-24,37.54,37.56,37.54,37.54,523065.0
2025-04-25,36.78,36.78,36.78,36.78,62507.0
2025-04-28,36.78,36.78,36.04,36.04,261861.0
2025-04-29,35.31,35.31,35.31,35.31,49220.0
2025-04-30,34.6,34.6,34.6,34.6,23775.0
2025-05-02,33.9,33.9,33.9,33.9,8873.0
2025-05-05,32.5,33.89,32.2,32.2,864614.0
2025-05-06,30.59,30.59,30.59,30.59,124674.0
2025-05-07,29.06,32.11,29.06,30.83,364545.0
2025-05-08,32.37,32.37,31.89,32.36,199465.0
2025-05-09,31.0,33.97,30.74,33.95,161434.0
2025-05-12,35.64,35.64,35.38,35.64,135622.0
2025-05-13,37.42,37.42,37.42,37.42,87196.0
2025-05-14,39.29,39.29,35.6,37.74,1085952.0
2025-05-15,36.98,36.98,36.98,36.98,76078.0
2025-05-16,37.05,37.5,37.05,37.5,194376.0
2025-05-19,37.4,37.5,37.1,37.5,59507.0
2025-05-20,38.25,38.25,37.83,38.25,50707.0
2025-05-21,39.01,39.01,39.01,39.01,11730.0
2025-05-22,39.79,39.79,39.79,39.79,21454.0
2025-05-23,40.58,40.58,40.58,40.58,10670.0
2025-05-26,41.39,41.39,41.39,41.39,8638.0
2025-05-27,42.21,42.21,42.21,42.21,12604.0
2025-05-28,43.05,43.05,43.05,43.05,17800.0
2025-05-29,43.91,43.91,43.91,43.91,8293.0
2025-05-30,44.78,44.78,43.03,43.03,860078.0
2025-06-02,42.16,42.16,42.16,42.16,95544.0
2025-06-03,41.31,41.31,41.31,41.31,25827.0
2025-06-04,40.48,40.48,40.48,40.48,37980.0
2025-06-05,39.67,39.67,39.67,39.67,47978.0
2025-06-06,38.87,38.87,38.87,38.87,21615.0
2025-06-09,38.09,39.64,38.09,39.64,212381.0
2025-06-10,38.84,38.84,38.84,38.84,59702.0
2025-06-11,38.06,38.06,38.06,38.06,41232.0
2025-06-12,37.29,37.29,37.29,37.29,170845.0
2025-06-13,36.54,36.54,36.54,36.54,38358.0
2025-06-16,35.8,35.8,35.8,35.8,7095.0
2025-06-17,35.08,35.08,35.08,35.08,46973.0
2025-06-18,34.37,35.78,34.37,34.37,675387.0
2025-06-19,33.68,33.68,33.68,33.68,126661.0
2025-06-20,33.0,33.0,33.0,33.0,440710.0
2025-06-23,31.35,31.35,31.35,31.35,89928.0
2025-06-24,29.78,32.91,29.78,31.71,820012.0
2025-06-25,30.6,32.4,30.12,31.83,277473.0
2025-06-26,32.0,32.9,31.15,31.33,46820.0
2025-06-27,30.7,32.89,30.7,32.88,96552.0
2025-06-30,33.4,34.52,33.4,34.52,158910.0
2025-07-01,36.24,36.24,35.01,35.15,265582.0
2025-07-02,36.0,36.0,33.39,33.75,285130.0
2025-07-03,33.4,34.25,32.07,32.14,140776.0
2025-07-04,31.85,32.5,31.05,32.07,63461.0
2025-07-07,31.4,32.69,31.0,32.11,32457.0
2025-07-08,31.99,32.7,30.65,32.0,22583.0
2025-07-09,32.0,32.9,31.1,31.42,45210.0
2025-07-10,31.51,32.45,31.0,31.22,71143.0
2025-07-11,32.2,32.2,31.0,31.75,35786.0
2025-07-14,32.24,32.24,31.07,31.57,16558.0
2025-07-15,31.57,32.1,30.96,31.93,48930.0
2025-07-17,35.1,35.19,35.0,35.19,269257.0
2025-07-18,34.22,36.94,34.1,36.94,145115.0
2025-07-21,35.51,38.0,35.09,35.92,556017.0
2025-07-22,35.2,35.2,35.2,35.2,53617.0
2025-07-23,34.49,34.49,34.49,34.49,3055.0
2025-07-24,33.8,33.8,33.8,33.8,927.0
2025-07-25,33.12,33.12,33.12,33.12,25133.0
2025-07-28,32.45,32.45,32.45,32.45,17643.0
2025-07-29,32.45,33.09,32.45,33.09,95494.0
2025-07-30,33.5,33.69,33.0,33.05,14824.0
2025-07-31,33.05,33.45,33.0,33.45,17210.0
2025-08-01,33.6,33.6,33.6,33.6,24953.0
2025-08-04,33.0,34.27,33.0,34.27,14652.0
2025-08-05,34.92,34.92,34.88,34.88,13276.0
2025-08-06,34.88,34.88,34.18,34.18,1591.0
2025-08-07,33.99,33.99,33.49,33.49,118.0
2025-08-08,33.49,33.49,32.82,33.0,32051.0
2025-08-11,33.0,33.0,32.41,33.0,4094.0
2025-08-12,33.0,33.0,32.34,32.34,4823.0
2025-08-13,32.5,32.5,31.7,31.7,24098.0
2025-08-14,31.11,31.11,31.06,31.06,3650.0
2025-08-18,31.21,31.21,30.43,30.43,14696.0
2025-08-19,30.61,31.03,30.61,31.03,53106.0
2025-08-20,31.49,31.65,31.49,31.6,16197.0
2025-08-21,32.0,32.23,32.0,32.23,24766.0
2025-08-22,32.87,32.87,32.87,32.87,2601.0
2025-08-25,32.98,33.52,32.98,33.0,46052.0
2025-08-26,32.34,32.34,32.34,32.34,47021.0
2025-08-28,31.7,31.75,31.69,31.69,13156.0
2025-08-29,31.6,31.6,31.05,31.1,41353.0
2025-09-01,31.41,32.2,29.63,31.16,49878.0
2025-09-02,30.15,31.52,30.0,30.17,27743.0
2025-09-03,30.0,30.68,29.15,30.18,34576.0
2025-09-04,29.95,30.9,29.2,29.53,30932.0
2025-09-05,29.57,30.0,29.0,29.61,16345.0
2025-09-08,29.61,31.07,29.5,30.27,8810.0
2025-09-09,29.8,30.87,29.26,30.0,47216.0
2025-09-10,29.51,31.0,29.4,30.5,23235.0
2025-09-11,29.9,31.0,29.5,30.6,20208.0
2025-09-12,30.26,31.41,30.21,31.03,16174.0
2025-09-15,32.5,37.23,32.5,33.97,898722.0
2025-09-16,34.0,35.99,33.6,34.87,149365.0
2025-09-17,35.0,35.0,32.2,32.85,112132.0
2025-09-18,32.8,36.18,32.26,34.5,132921.0
2025-09-19,34.49,35.95,33.0,34.79,65706.0
2025-09-22,35.45,35.45,33.01,33.13,36939.0
2025-09-23,33.0,34.6,32.49,32.86,572020.0
2025-09-24,33.5,33.9,32.0,32.2,57140.0
2025-09-25,33.01,33.06,31.3,32.03,36075.0
2025-09-26,32.03,33.03,31.2,31.38,23145.0
2025-09-29,30.55,33.0,30.55,30.93,57589.0
2025-09-30,30.55,31.95,30.55,30.96,28094.0
2025-10-01,30.1,31.09,29.2,30.55,38738.0
2025-10-03,29.5,33.5,29.5,33.1,85307.0
2025-10-06,32.51,33.79,32.5,32.52,37376.0
2025-10-07,32.1,33.0,32.01,32.26,35119.0
2025-10-08,32.98,33.0,31.0,31.57,46363.0
2025-10-09,31.52,33.43,31.01,31.92,29561.0
2025-10-10,31.2,32.6,31.2,31.49,14397.0
2025-10-13,31.01,31.51,30.01,30.18,48814.0
2025-10-14,30.87,31.0,29.85,30.22,71252.0
2025-10-15,29.75,30.91,29.63,29.91,40992.0
2025-10-16,30.05,33.02,30.05,30.94,141910.0
2025-10-17,30.53,30.9,29.4,29.71,75588.0
2025-10-20,29.11,30.5,29.11,29.9,25277.0
2025-10-21,30.2,31.0,29.0,29.82,16281.0
2025-10-23,29.42,30.0,29.42,29.89,11742.0
2025-10-24,29.63,30.0,29.5,29.94,24142.0
2025-10-27,29.56,29.99,29.02,29.79,37934.0
2025-10-28,29.3,29.92,29.27,29.8,31096.0
2025-10-29,29.8,30.17,29.43,29.55,18764.0
2025-10-30,29.19,30.47,29.19,29.79,31172.0
2025-10-31,29.33,30.0,29.0,29.14,19506.0
2025-11-03,29.2,29.9,29.19,29.3,11459.0
2025-11-04,29.39,29.39,27.35,28.26,25781.0
2025-11-06,28.3,28.9,28.03,28.5,27537.0
2025-11-07,27.5,28.8,27.05,28.16,36353.0
2025-11-10,27.17,30.69,27.17,29.22,28887.0
2025-11-11,29.36,29.37,28.4,28.94,12152.0
2025-11-12,28.93,29.09,28.41,28.87,7515.0
2025-11-13,28.25,29.49,28.0,29.02,111427.0
2025-11-14,29.49,30.0,28.6,29.29,22137.0
2025-11-17,30.0,30.19,29.5,29.9,25781.0
2025-11-18,29.7,30.0,29.19,29.73,38362.0
2025-11-19,30.5,32.0,29.25,29.87,123417.0
2025-11-20,30.5,30.5,29.16,29.73,84265.0
2025-11-21,29.17,30.0,28.3,29.13,96140.0
2025-11-24,28.3,29.19,28.0,28.24,32501.0
2025-11-25,27.33,29.9,27.33,28.79,168119.0
2025-11-26,30.85,30.85,28.2,28.88,110489.0
2025-11-27,29.94,30.4,28.31,29.8,66309.0
2025-11-28,30.1,30.66,29.3,30.21,15229.0
2025-12-01,29.9,31.48,29.19,29.75,22785.0
2025-12-02,29.02,30.87,29.02,29.69,41841.0
2025-12-03,30.59,30.6,29.26,30.09,36203.0
2025-12-04,30.92,30.92,29.95,29.99,34798.0
2025-12-05,30.79,30.79,29.55,30.14,27776.0
2025-12-08,30.01,30.33,29.26,29.99,34446.0
2025-12-09,29.8,30.84,29.8,30.28,118916.0
2025-12-10,30.9,31.52,30.21,31.02,36752.0
2025-12-11,31.29,32.01,30.8,31.07,26789.0
2025-12-12,31.91,31.98,30.95,31.17,38074.0
2025-12-15,30.6,31.99,30.0,31.39,97094.0
2025-12-16,30.66,31.64,30.66,31.01,23626.0
2025-12-17,31.26,31.47,30.55,30.57,23093.0
2025-12-18,31.75,31.75,30.19,30.2,26185.0
2025-12-19,31.06,31.06,30.5,30.6,15166.0
2025-12-22,31.08,31.48,30.6,31.18,38224.0
2025-12-23,31.7,31.7,30.65,30.86,26809.0
2025-12-24,31.0,31.88,30.9,30.99,25441.0
2025-12-26,31.61,32.3,30.9,30.94,66861.0
2025-12-29,31.56,33.89,31.5,31.87,80562.0
2025-12-30,31.4,32.46,30.89,31.66,14838.0
2025-12-31,33.2,35.0,31.29,32.72,113349.0
2026-01-01,32.72,33.09,31.5,31.7,34302.0
2026-01-02,33.0,33.0,31.5,31.81,18253.0
2026-01-05,31.7,33.3,31.4,31.61,21020.0
2026-01-06,33.25,33.25,31.1,31.31,7569.0
2026-01-07,31.3,31.98,30.9,30.91,17731.0
2026-01-08,32.01,32.01,30.8,30.8,19855.0
2026-01-09,32.32,32.32,30.9,30.91,22220.0
2026-01-12,30.91,31.5,29.2,30.5,15151.0
2026-01-13,30.63,31.87,30.5,30.5,21838.0
2026-01-14,32.98,32.98,30.47,30.54,33342.0
2026-01-16,31.15,31.2,29.25,30.63,8907.0
2026-01-19,30.69,35.5,30.18,34.18,299482.0
2026-01-20,34.29,34.99,30.3,30.52,99526.0
2026-01-21,29.2,31.8,29.2,30.52,38103.0
2026-01-22,33.5,33.5,30.51,30.86,12101.0
2026-01-23,30.86,32.0,30.5,30.56,23844.0
2026-01-27,30.56,31.54,30.5,30.67,37275.0
2026-01-28,30.51,31.5,30.51,30.76,18822.0
2026-01-29,29.4,32.05,29.4,31.34,84754.0
2026-01-30,31.9,31.9,30.0,30.59,107170.0
2026-02-01,29.3,31.5,29.3,30.52,14971.0
2026-02-02,29.45,31.58,29.45,30.2,46316.0
2026-02-03,29.25,31.49,29.25,30.5,27970.0
2026-02-04,31.26,31.44,30.25,30.7,106181.0
2026-02-05,30.15,31.14,30.1,30.5,46235.0
2026-02-06,30.49,31.0,29.5,30.54,20538.0
2026-02-09,30.54,31.6,29.78,31.26,19365.0
2026-02-10,31.51,31.51,30.71,31.02,18312.0
2026-02-11,30.55,31.3,30.5,30.63,45923.0
2026-02-12,31.48,31.48,30.41,31.01,25587.0
2026-02-13,31.39,31.39,30.16,30.63,27803.0
2026-02-16,31.5,31.5,29.65,31.12,64012.0
2026-02-17,31.51,31.99,30.8,31.04,31933.0
2026-02-18,30.26,31.35,30.26,31.03,23347.0
2026-02-19,30.3,31.24,30.3,30.58,30880.0
2026-02-20,30.7,31.28,30.61,31.07,318708.0
2026-02-23,31.19,32.48,30.7,31.78,283684.0
2026-02-24,32.45,34.9,31.5,34.5,300634.0
2026-02-25,36.7,40.38,35.5,37.16,747491.0
2026-02-26,37.5,39.0,35.2,38.48,193002.0
2026-02-27,38.5,40.35,34.05,35.54,270807.0
2026-03-02,35.5,35.5,32.25,32.95,129760.0
2026-03-04,32.1,35.35,32.1,33.87,57382.0
2026-03-05,34.79,35.32,32.32,34.32,51213.0
2026-03-06,35.34,38.48,34.98,35.88,227477.0
2026-03-09,35.87,35.87,33.75,34.56,38380.0
2026-03-10,36.8,41.47,35.03,38.85,418410.0
2026-03-11,38.85,42.0,36.76,39.41,428693.0
2026-03-12,39.8,39.8,35.1,36.18,504491.0
2026-03-13,36.18,39.0,35.6,36.76,130190.0
2026-03-16,35.72,36.53,34.2,35.23,207771.0
2026-03-17,35.26,36.1,34.11,34.33,85843.0
2026-03-18,34.84,35.0,34.0,34.26,59459.0
2026-03-19,33.9,34.77,33.5,33.57,83212.0
2026-03-20,33.31,34.0,32.91,32.98,61193.0
2026-03-23,32.9,33.9,29.1,30.01,347825.0
2026-03-24,29.8,31.54,29.8,31.19,115420.0
2026-03-25,30.8,31.95,30.8,31.02,66919.0
2026-03-27,31.02,31.78,30.4,30.46,76320.0
2026-03-30,30.9,32.0,28.56,29.75,97814.0
2026-04-01,30.25,31.79,30.0,30.23,99485.0
2026-04-02,30.24,30.51,29.8,30.16,56852.0
2026-04-06,30.0,30.7,30.0,30.33,47909.0
2026-04-07,30.33,30.5,30.0,30.25,28681.0
2026-04-08,31.2,31.49,30.3,30.4,101867.0
2026-04-09,30.06,30.93,30.06,30.72,16407.0
2026-04-10,31.41,33.85,30.57,33.49,204306.0
2026-04-13,33.01,34.83,32.58,34.04,69462.0
2026-04-15,35.05,35.85,34.06,35.04,65903.0
2026-04-16,35.94,35.94,34.3,35.06,35054.0
2026-04-17,34.4,36.45,34.4,36.05,82085.0
2026-04-20,34.4,35.99,33.2,33.39,65288.0
2026-04-21,33.0,34.18,33.0,33.01,16328.0
2026-04-22,33.01,34.49,33.0,33.47,38074.0
2026-04-23,33.68,33.78,32.6,32.79,27930.0
2026-04-24,32.11,33.54,32.11,32.6,11285.0
2026-04-27,32.6,32.96,31.2,31.89,30552.0
2026-04-28,32.09,32.15,31.5,31.53,14862.0
2026-04-29,31.52,33.7,31.52,32.12,25471.0
2026-04-30,31.31,32.94,31.31,32.32,21140.0
2026-05-04,32.34,33.17,31.57,32.05,19490.0
2026-05-05,32.07,34.4,31.9,32.4,100401.0
2026-05-06,32.4,32.96,31.9,32.11,23224.0
2026-05-07,32.0,32.68,31.9,32.23,17411.0
2026-05-08,32.0,32.4,31.35,32.1,63901.0
